#Data : Z - Force

               0                0 
     0.100000001   -0.00157717662 
     0.600000024   -0.00400154293 
               3   -0.00896334182 
      6.92000008    -0.0138964346 
      12.0559998    -0.0185833909 
      18.1648006    -0.0230210423 
      25.0518398    -0.0272311233 
      32.5614738     -0.031236425 
      40.5691757    -0.0350573361 
      48.9753418    -0.0387116596 
      57.7002754    -0.0422149412 
      66.6802216    -0.0455808416 
      75.8641739    -0.0488221534 
      85.2113419     -0.051948797 
      94.6890717    -0.0549702197 
      104.271255    -0.0578950867 
      113.937004    -0.0607311502 
      123.669601    -0.0634853616 
      133.455688    -0.0661639646 
      143.284546    -0.0687725842 
      153.147644    -0.0713162944 
      163.038116    -0.0737996772 
      172.950485    -0.0762268677 
      182.880386    -0.0786016211 
       192.82431    -0.0809273496 
             200    -0.0825882033 
      211.964111    -0.0630733371 
        225.5354    -0.0547350161 
      240.392426     -0.049377501 
      256.278046    -0.0453960672 
      272.986542    -0.0422549583 
      290.353363    -0.0396896452 
      308.246796    -0.0375465676 
      326.561554    -0.0357279815 
      345.213348    -0.0341677181 
      364.134796    -0.0328188129 
      383.271942    -0.0316465534 
             400    -0.0307457969 
      435.447784    -0.0292428676 
         483.806    -0.0277397819 
      542.492554    -0.0264677722 
      609.441833    -0.0254933406 
      683.001221    -0.0247956682 
      761.848755    -0.0243200809 
      844.926819    -0.0240076259 
      931.389221    -0.0238080584 
            1000    -0.0237025023 
      1091.33594    -0.0236181878 
      1184.40466    -0.0235670581 
            1200    -0.0235593673 
